VAMAS Surface Chemical Analysis Standard Data Transfer Format 1988 May 4
Not Specified
Staib SuperCMA
Not Specified
Not Specified
1
WinSpectro DAQ
NORM
REGULAR
1
0
0
0
0
0
1
1st block id
1st sample id
2022
5
26
15
0
46
0
0
AES diff
egun
0.000000
0.000000
0.000000
0.000000
0.000000
0.000000
FAT
1e+037
1e+037
1e+037
1e+037
1e+037
1e+037
1e+037
1e+037
1e+037
species
 
-1
Kinetic Energy
eV
19.989319
1.983673
1
Intensity
d
analogue
0.503000
1
1e+037
0.000000
0.000000
0.000000
4
BKSrettime
n
5000
BKSsamples
n
20120
BKSresomode
n
1
BKSresol
n
1.000000
1100
-3423633
99886
-3423633
-3399909
-3290279
-3223175
-3076174
-2768519
-2397198
-2078317
-1797841
-1719578
-1825994
-2006363
-2082314
-1979091
-1800743
-1518774
-1296688
-1152582
-1028497
-929494
-931427
-1110967
-1289508
-1395742
-1405267
-1137223
-877000
-666956
-582539
-589905
-578245
-573641
-579452
-585785
-538835
-512128
-479939
-451821
-423728
-394812
-346697
-334821
-320617
-315425
-297559
-257193
-277497
-270578
-242201
-232934
-229856
-209287
-203434
-220377
-207858
-199609
-177460
-190183
-177421
-185238
-159148
-151842
-146969
-119215
-83353
-93717
-144370
-141587
-133238
-138563
-143903
-158835
-97396
-96010
-108935
-143706
-151422
-144024
-140031
-89508
-98708
-85129
-76297
-90938
-97723
-74214
-44659
-34932
-44507
-58193
-61537
-62564
-67768
-63770
-37754
-40372
-43955
-25584
-57523
-53539
-21263
-27508
-58322
-18353
-28743
-6062
-18844
-29411
-74551
-93762
-80859
-85371
-41729
-33173
-26496
-66458
-91099
-89486
-55353
-66054
-57053
-58835
-42322
-57991
-19010
-33173
-27212
-9269
-46388
-33189
-29340
-22703
-43383
-24394
-29196
-28230
-5480
-27977
-13712
-22140
-24246
-9785
-26983
-36653
-51688
-14355
-13878
-16874
-26900
-18013
-25111
-20715
4716
-22382
-30147
-24632
-13538
-12279
-28344
-7251
-23838
-22043
-33835
-35589
-20524
-893
-28648
1930
-628
-19791
-38335
-67505
-37740
-9855
-14782
-32711
-26866
-36719
4460
-38139
-24111
-5436
-17814
-2967
-21266
-29610
-43357
-45946
-43066
-46892
-25449
-37974
-35555
-22728
-32998
-42129
-10207
-24437
11519
-12740
3671
-1906
-5841
3159
-20559
-12926
-9006
-32405
10308
-30655
-13531
-32131
-31133
-8780
-29775
-4101
6362
-23494
11854
-7982
-6042
-20393
7154
4253
13123
-5719
-17659
4725
-12192
2831
13640
-8640
14393
24508
15922
14280
-27812
-41134
-1961
22979
2850
37949
31961
40557
52125
49026
-34489
-114157
-97147
-34800
-44237
-33596
-22096
-30158
-28552
-11988
-10819
-403
-22154
-853
20415
8172
-3443
-10972
-6881
9795
-3182
10693
1927
2298
-5566
8650
16663
-63
6723
11447
-13452
-3755
8867
14571
-995
-10472
-11493
7844
-10132
11527
4814
18134
-4313
5510
12791
14838
2477
12782
18717
23368
12985
-7498
18734
9919
7507
-7805
16749
15960
30201
13821
1888
-13173
-3345
15748
28234
18832
-6997
10926
2184
16079
6332
14847
6401
32005
27236
9512
29547
13358
24464
22013
34119
32147
-14616
37136
14299
3646
13121
27526
-774
19022
15961
4027
17177
-4919
21666
35719
20092
38016
16263
21375
22668
14896
22531
31968
31002
-566
22439
-1364
30929
27105
15324
24713
12708
41179
26275
19503
29068
7701
44246
11226
13084
11279
22183
47777
37697
21007
19934
32252
32924
17640
30869
12950
23026
40575
17955
24299
9046
33736
25831
22665
30947
18880
26499
17663
37815
38879
7601
24741
55612
29643
32581
28189
45914
24983
34765
39793
48265
28796
26621
33606
23171
40022
27355
30189
37415
18008
37275
18391
30950
44159
17627
33285
26108
36823
42578
13269
9681
34189
12547
20210
46213
27611
25987
18566
8333
37206
28121
13995
19155
11220
31804
20447
30979
60458
28802
24413
33770
33602
37540
28237
12344
29067
41844
5523
38481
41476
29042
26929
53633
3042
15968
61076
35497
19617
22478
15053
40695
22624
32959
54214
46692
19161
17023
40453
31342
46103
31228
31134
20934
60856
55853
54597
31560
12094
37552
45310
38469
52602
20073
51222
45282
36192
11971
17060
24959
38209
39966
28333
12623
43492
24530
27789
28987
29946
44368
32698
35916
10993
19063
24351
42185
50314
61919
34329
26212
12491
-9205
24353
46155
34116
6430
39070
21539
39281
33192
20791
20672
52451
36841
45446
40658
31714
21198
13951
32945
48284
18836
-7574
72425
29960
40296
46266
18135
13893
28555
33607
18629
23489
51011
48383
41600
26339
51659
61672
43864
30204
39376
48506
55109
78256
41981
28611
39651
61176
32684
44945
51359
34683
35132
52600
40122
41485
32232
31389
46638
29707
23983
15260
26373
32453
29445
58137
54241
12792
47514
48615
40979
18698
37894
36410
34607
24349
27693
54658
52820
9760
32318
51724
34180
43110
40306
52209
36375
46246
31098
45715
30228
36354
26512
41828
62552
43625
43107
35011
49660
33137
34473
22934
53051
36895
31031
35550
15331
20440
38810
25742
26257
13573
45255
62568
20006
28413
29839
49212
37942
42796
41537
54108
41556
20780
26203
33129
53612
67430
15488
41505
52843
44165
45978
31083
38261
44616
35294
47118
46793
31573
43662
39559
27304
32002
47084
40452
47848
32368
24941
68186
43652
36113
51322
36366
23250
22319
20429
40901
40223
44850
47146
50997
32544
53029
43785
52490
52571
32173
37255
36006
48549
17629
39089
30542
62856
59727
26839
31116
32354
23177
36247
46979
37669
45011
22020
52409
43242
53374
40229
39602
60768
51252
48635
54076
45022
63725
58742
48659
39983
50881
68718
67903
38249
34196
63112
72326
60826
45447
34422
30897
35650
56803
19131
27310
28604
26075
36173
54319
36121
29533
33842
42095
27158
25128
15893
63671
18621
46153
60714
50626
36348
41730
51799
43325
14835
47880
36308
40096
48386
56893
38467
56504
60310
18419
31034
59868
50658
18852
40157
55039
49993
46164
58853
34479
50088
27748
21450
35967
27259
26149
29837
24287
53785
47778
52991
54445
58851
20688
19591
39080
37141
56776
36377
40913
54281
53625
48412
68772
49915
44998
38274
31929
51105
39415
55404
39459
47023
35403
41450
38308
45266
46144
23656
50356
37767
27006
37303
53628
67956
68472
44428
85075
73254
-61622
41348
71605
80401
38845
60969
59287
70361
15266
61590
60228
55204
35690
51474
43766
53984
68826
35151
56854
38060
47208
42960
37207
30817
73879
59640
58373
36991
48928
39522
51631
18798
36725
32830
59633
56112
42983
49759
39291
26275
22925
13633
11964
38356
21713
51939
26468
48954
67629
51509
32655
45082
37833
54322
43909
53163
33262
59273
45812
44686
56922
24436
61433
57949
52962
41821
72162
54378
59848
55069
32086
53855
40468
61948
32345
30300
29686
32354
55529
31898
46063
50993
50955
57275
27091
50657
47367
45116
40658
46288
36093
44324
45508
74086
55673
50439
64387
67677
49038
56586
62622
48789
46435
29910
48814
68958
56294
56222
64213
57170
50776
34438
28955
44959
46478
71910
46178
63472
45943
55287
69022
40914
57703
27681
43133
45779
62332
31961
49803
52148
99886
49342
50026
59289
44972
43503
51945
52944
49390
42247
78538
54168
74748
73673
66274
58779
43228
57731
46858
45625
47216
64269
39569
61456
56867
73547
73825
72468
81096
75516
78311
65245
56810
11285
-18872
-3707
-14556
-7113
17806
36728
39669
33693
71026
64021
69761
55493
31136
29796
45931
37091
45020
41652
49685
63548
43613
50452
52500
77938
73599
46186
64909
44182
72910
44225
50749
56766
51256
73064
52879
76550
70851
96440
66722
50549
-4813
3676
21
32021
35136
54162
63834
39531
46883
57398
40057
38988
58886
42476
61188
46807
36368
46456
80121
42928
47399
44963
37998
42336
37453
45313
56421
59977
40517
42321
50216
77640
47859
44720
48046
59057
57096
42449
60510
45786
60834
44432
46658
30968
18274
38316
38570
46434
71259
53433
52320
60117
50926
74827
51537
59894
68708
60703
35276
47857
41643
47756
63676
46269
53095
46815
30418
72166
60316
62409
69265
67447
72147
60227
67726
67072
54018
41460
43913
16616
46755
end of experiment
