[Info]
Number of Regions=0002
Version=1.3.1

[Region 1]
Region Name=O1s
Dimension 1 name=Binding Energy [eV]
Dimension 1 size=401
Dimension 1 scale=540 539.95 539.9 539.85 539.8 539.75 539.7 539.65 539.6 539.55 539.5 539.45 539.4 539.35 539.3 539.25 539.2 539.15 539.1 539.05 539 538.95 538.9 538.85 538.8 538.75 538.7 538.65 538.6 538.55 538.5 538.45 538.4 538.35 538.3 538.25 538.2 538.15 538.1 538.05 538 537.95 537.9 537.85 537.8 537.75 537.7 537.65 537.6 537.55 537.5 537.45 537.4 537.35 537.3 537.25 537.2 537.15 537.1 537.05 537 536.95 536.9 536.85 536.8 536.75 536.7 536.65 536.6 536.55 536.5 536.45 536.4 536.35 536.3 536.25 536.2 536.15 536.1 536.05 536 535.95 535.9 535.85 535.8 535.75 535.7 535.65 535.6 535.55 535.5 535.45 535.4 535.35 535.3 535.25 535.2 535.15 535.1 535.05 535 534.95 534.9 534.85 534.8 534.75 534.7 534.65 534.6 534.55 534.5 534.45 534.4 534.35 534.3 534.25 534.2 534.15 534.1 534.05 534 533.95 533.9 533.85 533.8 533.75 533.7 533.65 533.6 533.55 533.5 533.45 533.4 533.35 533.3 533.25 533.2 533.15 533.1 533.05 533 532.95 532.9 532.85 532.8 532.75 532.7 532.65 532.6 532.55 532.5 532.45 532.4 532.35 532.3 532.25 532.2 532.15 532.1 532.05 532 531.95 531.9 531.85 531.8 531.75 531.7 531.65 531.6 531.55 531.5 531.45 531.4 531.35 531.3 531.25 531.2 531.15 531.1 531.05 531 530.95 530.9 530.85 530.8 530.75 530.7 530.65 530.6 530.55 530.5 530.45 530.4 530.35 530.3 530.25 530.2 530.15 530.1 530.05 530 529.95 529.9 529.85 529.8 529.75 529.7 529.65 529.6 529.55 529.5 529.45 529.4 529.35 529.3 529.25 529.2 529.15 529.1 529.05 529 528.95 528.9 528.85 528.8 528.75 528.7 528.65 528.6 528.55 528.5 528.45 528.4 528.35 528.3 528.25 528.2 528.15 528.1 528.05 528 527.95 527.9 527.85 527.8 527.75 527.7 527.65 527.6 527.55 527.5 527.45 527.4 527.35 527.3 527.25 527.2 527.15 527.1 527.05 527 526.95 526.9 526.85 526.8 526.75 526.7 526.65 526.6 526.55 526.5 526.45 526.4 526.35 526.3 526.25 526.2 526.15 526.1 526.05 526 525.95 525.9 525.85 525.8 525.75 525.7 525.65 525.6 525.55 525.5 525.45 525.4 525.35 525.3 525.25 525.2 525.15 525.1 525.05 525 524.95 524.9 524.85 524.8 524.75 524.7 524.65 524.6 524.55 524.5 524.45 524.4 524.35 524.3 524.25 524.2 524.15 524.1 524.05 524 523.95 523.9 523.85 523.8 523.75 523.7 523.65 523.6 523.55 523.5 523.45 523.4 523.35 523.3 523.25 523.2 523.15 523.1 523.05 523 522.95 522.9 522.85 522.8 522.75 522.7 522.65 522.6 522.55 522.5 522.45 522.4 522.35 522.3 522.25 522.2 522.15 522.1 522.05 522 521.95 521.9 521.85 521.8 521.75 521.7 521.65 521.6 521.55 521.5 521.45 521.4 521.35 521.3 521.25 521.2 521.15 521.1 521.05 521 520.95 520.9 520.85 520.8 520.75 520.7 520.65 520.6 520.55 520.5 520.45 520.4 520.35 520.3 520.25 520.2 520.15 520.1 520.05 520

[Info 1]
Region Name=O1s
Lens Mode=SwiftAcc_HiPP3L
Pass Energy=50
Number of Sweeps=1
Excitation Energy=920.1048825394
Energy Scale=Binding
Acquisition Mode=Swept
Energy Unit=Kinetic
Center Energy=390.1048825394
Low Energy=380.1048825394
High Energy=400.1048825394
Energy Step=0.05
Step Time=100
Detector First X-Channel=1
Detector Last X-Channel=512
Detector First Y-Channel=1
Detector Last Y-Channel=440
Number of Slices=1
File=T:\hippie\20200272\2021070708\raw\Magnetite_1_0016.pxt,.txt
Sequence=Z:\20200272\2021070708\raw\sequence2.seq
Spectrum Name=Magnetite_1_016O1s
Instrument=HiPP-3L-9676
Location=Scienta
User=Scienta
Sample=Xe
Comments=;
Date=2021-07-06
Time=16:57:09
Time per Spectrum Channel=6.6
DetectorMode=ADC
[Run Mode Information 1]



[Data 1]
 5.40000000000000E+0002  4.59711104631424E-0001
 5.39950000000000E+0002  4.41953152418137E-0001
 5.39900000000000E+0002  4.64785486459732E-0001
 5.39850000000000E+0002  4.61216330528259E-0001
 5.39800000000000E+0002  4.13065850734711E-0001
 5.39750000000000E+0002  4.06217515468597E-0001
 5.39700000000000E+0002  4.30454611778259E-0001
 5.39650000000000E+0002  4.03443872928619E-0001
 5.39600000000000E+0002  4.11018103361130E-0001
 5.39550000000000E+0002  3.79175662994385E-0001
 5.39500000000000E+0002  4.14597809314728E-0001
 5.39450000000000E+0002  4.02100861072540E-0001
 5.39400000000000E+0002  4.39886420965195E-0001
 5.39350000000000E+0002  4.60144370794296E-0001
 5.39300000000000E+0002  3.52654010057449E-0001
 5.39250000000000E+0002  4.29547637701035E-0001
 5.39200000000000E+0002  4.30352121591568E-0001
 5.39150000000000E+0002  4.20189172029495E-0001
 5.39100000000000E+0002  4.01463508605957E-0001
 5.39050000000000E+0002  4.30634349584579E-0001
 5.39000000000000E+0002  4.65654581785202E-0001
 5.38950000000000E+0002  4.23316448926926E-0001
 5.38900000000000E+0002  4.10080939531326E-0001
 5.38850000000000E+0002  4.44294750690460E-0001
 5.38800000000000E+0002  4.34849619865417E-0001
 5.38750000000000E+0002  4.30846154689789E-0001
 5.38700000000000E+0002  4.18895363807678E-0001
 5.38650000000000E+0002  4.55302298069000E-0001
 5.38600000000000E+0002  3.99616688489914E-0001
 5.38550000000000E+0002  4.18780058622360E-0001
 5.38500000000000E+0002  4.21397954225540E-0001
 5.38450000000000E+0002  4.31231826543808E-0001
 5.38400000000000E+0002  4.63471114635468E-0001
 5.38350000000000E+0002  4.25484478473663E-0001
 5.38300000000000E+0002  4.35628741979599E-0001
 5.38250000000000E+0002  3.94962280988693E-0001
 5.38200000000000E+0002  3.62309098243713E-0001
 5.38150000000000E+0002  3.71536135673523E-0001
 5.38100000000000E+0002  3.75077724456787E-0001
 5.38050000000000E+0002  3.99289995431900E-0001
 5.38000000000000E+0002  3.79564672708511E-0001
 5.37950000000000E+0002  3.65946918725967E-0001
 5.37900000000000E+0002  3.81203740835190E-0001
 5.37850000000000E+0002  4.57314848899841E-0001
 5.37800000000000E+0002  3.73925030231476E-0001
 5.37750000000000E+0002  4.18396890163422E-0001
 5.37700000000000E+0002  3.61257314682007E-0001
 5.37650000000000E+0002  3.19034904241562E-0001
 5.37600000000000E+0002  4.48810011148453E-0001
 5.37550000000000E+0002  3.65183204412460E-0001
 5.37500000000000E+0002  4.12218838930130E-0001
 5.37450000000000E+0002  4.09511715173721E-0001
 5.37400000000000E+0002  3.87616395950317E-0001
 5.37350000000000E+0002  4.11788791418076E-0001
 5.37300000000000E+0002  4.30247843265533E-0001
 5.37250000000000E+0002  3.99905234575272E-0001
 5.37200000000000E+0002  4.10552442073822E-0001
 5.37150000000000E+0002  4.06515747308731E-0001
 5.37100000000000E+0002  4.46311980485916E-0001
 5.37050000000000E+0002  3.65409314632416E-0001
 5.37000000000000E+0002  3.82130235433578E-0001
 5.36950000000000E+0002  4.07446295022964E-0001
 5.36900000000000E+0002  4.25419390201569E-0001
 5.36850000000000E+0002  3.87977957725525E-0001
 5.36800000000000E+0002  4.28748369216919E-0001
 5.36750000000000E+0002  3.83053392171860E-0001
 5.36700000000000E+0002  3.98491680622101E-0001
 5.36650000000000E+0002  4.25872713327408E-0001
 5.36600000000000E+0002  3.85585159063339E-0001
 5.36550000000000E+0002  3.93381565809250E-0001
 5.36500000000000E+0002  4.17820930480957E-0001
 5.36450000000000E+0002  4.28473740816116E-0001
 5.36400000000000E+0002  3.55846166610718E-0001
 5.36350000000000E+0002  4.62994158267975E-0001
 5.36300000000000E+0002  4.25097584724426E-0001
 5.36250000000000E+0002  4.56190586090088E-0001
 5.36200000000000E+0002  3.89147311449051E-0001
 5.36150000000000E+0002  3.75617951154709E-0001
 5.36100000000000E+0002  4.14930611848831E-0001
 5.36050000000000E+0002  4.39057469367981E-0001
 5.36000000000000E+0002  3.73177915811539E-0001
 5.35950000000000E+0002  4.05351012945175E-0001
 5.35900000000000E+0002  3.72970759868622E-0001
 5.35850000000000E+0002  4.45711553096771E-0001
 5.35800000000000E+0002  3.62637162208557E-0001
 5.35750000000000E+0002  4.24481421709061E-0001
 5.35700000000000E+0002  4.60808992385864E-0001
 5.35650000000000E+0002  3.88687640428543E-0001
 5.35600000000000E+0002  4.29786056280136E-0001
 5.35550000000000E+0002  4.13675278425217E-0001
 5.35500000000000E+0002  3.76610308885574E-0001
 5.35450000000000E+0002  3.46340298652649E-0001
 5.35400000000000E+0002  3.55919539928436E-0001
 5.35350000000000E+0002  3.80867660045624E-0001
 5.35300000000000E+0002  4.38545554876327E-0001
 5.35250000000000E+0002  4.07895237207413E-0001
 5.35200000000000E+0002  3.59718114137650E-0001
 5.35150000000000E+0002  3.84433269500732E-0001
 5.35100000000000E+0002  4.59028363227844E-0001
 5.35050000000000E+0002  3.89978736639023E-0001
 5.35000000000000E+0002  3.77535283565521E-0001
 5.34950000000000E+0002  3.86658400297165E-0001
 5.34900000000000E+0002  4.08933490514755E-0001
 5.34850000000000E+0002  3.86801004409790E-0001
 5.34800000000000E+0002  4.30217474699020E-0001
 5.34750000000000E+0002  4.43389087915421E-0001
 5.34700000000000E+0002  3.93392384052277E-0001
 5.34650000000000E+0002  3.27469199895859E-0001
 5.34600000000000E+0002  3.56926858425140E-0001
 5.34550000000000E+0002  3.49923580884933E-0001
 5.34500000000000E+0002  3.97625148296356E-0001
 5.34450000000000E+0002  4.21933352947235E-0001
 5.34400000000000E+0002  3.88881653547287E-0001
 5.34350000000000E+0002  4.09285455942154E-0001
 5.34300000000000E+0002  4.11466747522354E-0001
 5.34250000000000E+0002  3.37515145540237E-0001
 5.34200000000000E+0002  3.36021602153778E-0001
 5.34150000000000E+0002  3.22068333625793E-0001
 5.34100000000000E+0002  3.79668831825256E-0001
 5.34050000000000E+0002  3.70459705591202E-0001
 5.34000000000000E+0002  3.57658565044403E-0001
 5.33950000000000E+0002  3.73338460922241E-0001
 5.33900000000000E+0002  3.31043660640717E-0001
 5.33850000000000E+0002  3.73743891716003E-0001
 5.33800000000000E+0002  3.34960639476776E-0001
 5.33750000000000E+0002  4.18559819459915E-0001
 5.33700000000000E+0002  3.62043261528015E-0001
 5.33650000000000E+0002  4.09104168415070E-0001
 5.33600000000000E+0002  3.59821230173111E-0001
 5.33550000000000E+0002  2.93951600790024E-0001
 5.33500000000000E+0002  3.83545726537704E-0001
 5.33450000000000E+0002  3.42736750841141E-0001
 5.33400000000000E+0002  3.41465055942535E-0001
 5.33350000000000E+0002  3.71311575174332E-0001
 5.33300000000000E+0002  3.51973831653595E-0001
 5.33250000000000E+0002  3.36398243904114E-0001
 5.33200000000000E+0002  2.92479246854782E-0001
 5.33150000000000E+0002  3.25204223394394E-0001
 5.33100000000000E+0002  3.74498367309570E-0001
 5.33050000000000E+0002  3.83232235908508E-0001
 5.33000000000000E+0002  3.53988826274872E-0001
 5.32950000000000E+0002  3.42546969652176E-0001
 5.32900000000000E+0002  4.00795787572861E-0001
 5.32850000000000E+0002  3.29991042613983E-0001
 5.32800000000000E+0002  3.71333003044128E-0001
 5.32750000000000E+0002  3.80705058574677E-0001
 5.32700000000000E+0002  3.54551076889038E-0001
 5.32650000000000E+0002  3.61181050539017E-0001
 5.32600000000000E+0002  3.62198531627655E-0001
 5.32550000000000E+0002  3.48972827196121E-0001
 5.32500000000000E+0002  3.93796980381012E-0001
 5.32450000000000E+0002  3.00821781158447E-0001
 5.32400000000000E+0002  4.02690142393112E-0001
 5.32350000000000E+0002  3.74274343252182E-0001
 5.32300000000000E+0002  3.86695533990860E-0001
 5.32250000000000E+0002  3.87872010469437E-0001
 5.32200000000000E+0002  3.71634393930435E-0001
 5.32150000000000E+0002  3.53901445865631E-0001
 5.32100000000000E+0002  3.28512281179428E-0001
 5.32050000000000E+0002  3.91446322202682E-0001
 5.32000000000000E+0002  3.50354522466660E-0001
 5.31950000000000E+0002  3.48496198654175E-0001
 5.31900000000000E+0002  4.15086805820465E-0001
 5.31850000000000E+0002  3.25908213853836E-0001
 5.31800000000000E+0002  3.39309900999069E-0001
 5.31750000000000E+0002  3.09402346611023E-0001
 5.31700000000000E+0002  4.00873810052872E-0001
 5.31650000000000E+0002  4.20907527208328E-0001
 5.31600000000000E+0002  4.04322445392609E-0001
 5.31550000000000E+0002  3.90554964542389E-0001
 5.31500000000000E+0002  3.63929331302643E-0001
 5.31450000000000E+0002  3.81666868925095E-0001
 5.31400000000000E+0002  3.43374848365784E-0001
 5.31350000000000E+0002  3.83555799722671E-0001
 5.31300000000000E+0002  3.68736922740936E-0001
 5.31250000000000E+0002  4.00290042161942E-0001
 5.31200000000000E+0002  4.17517066001892E-0001
 5.31150000000000E+0002  4.11210715770721E-0001
 5.31100000000000E+0002  4.90897357463837E-0001
 5.31050000000000E+0002  4.36371296644211E-0001
 5.31000000000000E+0002  4.10788774490356E-0001
 5.30950000000000E+0002  4.12786781787872E-0001
 5.30900000000000E+0002  4.04327809810638E-0001
 5.30850000000000E+0002  4.55615550279617E-0001
 5.30800000000000E+0002  5.18237650394440E-0001
 5.30750000000000E+0002  4.53106075525284E-0001
 5.30700000000000E+0002  5.37024199962616E-0001
 5.30650000000000E+0002  5.55527627468109E-0001
 5.30600000000000E+0002  5.45291304588318E-0001
 5.30550000000000E+0002  5.84459662437439E-0001
 5.30500000000000E+0002  5.96221923828125E-0001
 5.30450000000000E+0002  5.64346373081207E-0001
 5.30400000000000E+0002  6.20383977890015E-0001
 5.30350000000000E+0002  6.38194143772125E-0001
 5.30300000000000E+0002  6.51886224746704E-0001
 5.30250000000000E+0002  6.84642434120178E-0001
 5.30200000000000E+0002  7.87386655807495E-0001
 5.30150000000000E+0002  7.87554204463959E-0001
 5.30100000000000E+0002  8.02599012851715E-0001
 5.30050000000000E+0002  8.99491369724274E-0001
 5.30000000000000E+0002  9.74446713924408E-0001
 5.29950000000000E+0002  1.05119490623474E+0000
 5.29900000000000E+0002  1.02772402763367E+0000
 5.29850000000000E+0002  1.18358123302460E+0000
 5.29800000000000E+0002  1.37369620800018E+0000
 5.29750000000000E+0002  1.46129155158997E+0000
 5.29700000000000E+0002  1.56373560428619E+0000
 5.29650000000000E+0002  1.80613136291504E+0000
 5.29600000000000E+0002  2.04103183746338E+0000
 5.29550000000000E+0002  2.22998833656311E+0000
 5.29500000000000E+0002  2.62395453453064E+0000
 5.29450000000000E+0002  2.90095496177673E+0000
 5.29400000000000E+0002  3.25781369209290E+0000
 5.29350000000000E+0002  3.81369185447693E+0000
 5.29300000000000E+0002  4.50673723220825E+0000
 5.29250000000000E+0002  5.07112836837769E+0000
 5.29200000000000E+0002  5.76837587356567E+0000
 5.29150000000000E+0002  6.29568195343018E+0000
 5.29100000000000E+0002  7.16787147521973E+0000
 5.29050000000000E+0002  8.04526901245117E+0000
 5.29000000000000E+0002  8.27394866943359E+0000
 5.28950000000000E+0002  8.82281494140625E+0000
 5.28900000000000E+0002  9.29572010040283E+0000
 5.28850000000000E+0002  9.78814315795898E+0000
 5.28800000000000E+0002  9.36910152435303E+0000
 5.28750000000000E+0002  9.30987071990967E+0000
 5.28700000000000E+0002  8.79946041107178E+0000
 5.28650000000000E+0002  7.93416976928711E+0000
 5.28600000000000E+0002  7.16389083862305E+0000
 5.28550000000000E+0002  6.19129228591919E+0000
 5.28500000000000E+0002  5.18635320663452E+0000
 5.28450000000000E+0002  4.62145805358887E+0000
 5.28400000000000E+0002  3.77618932723999E+0000
 5.28350000000000E+0002  3.30063271522522E+0000
 5.28300000000000E+0002  2.59580922126770E+0000
 5.28250000000000E+0002  2.20838260650635E+0000
 5.28200000000000E+0002  1.86353504657745E+0000
 5.28150000000000E+0002  1.70121490955353E+0000
 5.28100000000000E+0002  1.38780343532562E+0000
 5.28050000000000E+0002  1.10877370834351E+0000
 5.28000000000000E+0002  9.53042030334473E-0001
 5.27950000000000E+0002  8.04482936859131E-0001
 5.27900000000000E+0002  6.99465513229370E-0001
 5.27850000000000E+0002  5.67214071750641E-0001
 5.27800000000000E+0002  5.78088998794556E-0001
 5.27750000000000E+0002  5.38257777690887E-0001
 5.27700000000000E+0002  5.21736025810242E-0001
 5.27650000000000E+0002  4.21706199645996E-0001
 5.27600000000000E+0002  4.11833405494690E-0001
 5.27550000000000E+0002  3.83617907762527E-0001
 5.27500000000000E+0002  2.99140959978104E-0001
 5.27450000000000E+0002  3.49764764308929E-0001
 5.27400000000000E+0002  2.73960292339325E-0001
 5.27350000000000E+0002  3.35305929183960E-0001
 5.27300000000000E+0002  3.21606904268265E-0001
 5.27250000000000E+0002  3.01724582910538E-0001
 5.27200000000000E+0002  2.69237905740738E-0001
 5.27150000000000E+0002  2.58574277162552E-0001
 5.27100000000000E+0002  2.27775767445564E-0001
 5.27050000000000E+0002  2.24318563938141E-0001
 5.27000000000000E+0002  2.42266982793808E-0001
 5.26950000000000E+0002  2.82706171274185E-0001
 5.26900000000000E+0002  2.51421719789505E-0001
 5.26850000000000E+0002  2.74455994367599E-0001
 5.26800000000000E+0002  2.43024080991745E-0001
 5.26750000000000E+0002  2.71702677011490E-0001
 5.26700000000000E+0002  2.29933992028236E-0001
 5.26650000000000E+0002  2.56598562002182E-0001
 5.26600000000000E+0002  2.67462223768234E-0001
 5.26550000000000E+0002  2.13004276156425E-0001
 5.26500000000000E+0002  2.22404062747955E-0001
 5.26450000000000E+0002  2.16681227087975E-0001
 5.26400000000000E+0002  2.33092352747917E-0001
 5.26350000000000E+0002  2.42193818092346E-0001
 5.26300000000000E+0002  2.53022581338882E-0001
 5.26250000000000E+0002  2.90139198303223E-0001
 5.26200000000000E+0002  2.59681105613709E-0001
 5.26150000000000E+0002  2.30904772877693E-0001
 5.26100000000000E+0002  2.44790479540825E-0001
 5.26050000000000E+0002  2.65216141939163E-0001
 5.26000000000000E+0002  2.15359508991241E-0001
 5.25950000000000E+0002  2.72819817066193E-0001
 5.25900000000000E+0002  2.20105662941933E-0001
 5.25850000000000E+0002  2.23007112741470E-0001
 5.25800000000000E+0002  2.17651695013046E-0001
 5.25750000000000E+0002  1.90275877714157E-0001
 5.25700000000000E+0002  2.54097998142242E-0001
 5.25650000000000E+0002  2.44587227702141E-0001
 5.25600000000000E+0002  2.28296220302582E-0001
 5.25550000000000E+0002  2.32246726751328E-0001
 5.25500000000000E+0002  1.94451183080673E-0001
 5.25450000000000E+0002  2.01781377196312E-0001
 5.25400000000000E+0002  2.37268671393394E-0001
 5.25350000000000E+0002  2.56431311368942E-0001
 5.25300000000000E+0002  1.83825895190239E-0001
 5.25250000000000E+0002  2.04043254256248E-0001
 5.25200000000000E+0002  2.29853704571724E-0001
 5.25150000000000E+0002  2.04644665122032E-0001
 5.25100000000000E+0002  2.12437927722931E-0001
 5.25050000000000E+0002  2.43683353066444E-0001
 5.25000000000000E+0002  2.66403049230576E-0001
 5.24950000000000E+0002  2.27534800767899E-0001
 5.24900000000000E+0002  2.14155554771423E-0001
 5.24850000000000E+0002  2.30277508497238E-0001
 5.24800000000000E+0002  2.00338229537010E-0001
 5.24750000000000E+0002  2.18469187617302E-0001
 5.24700000000000E+0002  2.25235223770142E-0001
 5.24650000000000E+0002  1.96580901741982E-0001
 5.24600000000000E+0002  1.68682411313057E-0001
 5.24550000000000E+0002  2.04685747623444E-0001
 5.24500000000000E+0002  1.93862184882164E-0001
 5.24450000000000E+0002  1.93000540137291E-0001
 5.24400000000000E+0002  1.84465065598488E-0001
 5.24350000000000E+0002  2.67809271812439E-0001
 5.24300000000000E+0002  2.35823258757591E-0001
 5.24250000000000E+0002  2.31866687536240E-0001
 5.24200000000000E+0002  2.22982704639435E-0001
 5.24150000000000E+0002  2.12981879711151E-0001
 5.24100000000000E+0002  2.14652001857758E-0001
 5.24050000000000E+0002  2.44236826896667E-0001
 5.24000000000000E+0002  2.00716182589531E-0001
 5.23950000000000E+0002  2.17554003000259E-0001
 5.23900000000000E+0002  2.37813264131546E-0001
 5.23850000000000E+0002  1.88510581851006E-0001
 5.23800000000000E+0002  2.35715731978416E-0001
 5.23750000000000E+0002  2.10080161690712E-0001
 5.23700000000000E+0002  1.71159356832504E-0001
 5.23650000000000E+0002  2.24476784467697E-0001
 5.23600000000000E+0002  2.11760863661766E-0001
 5.23550000000000E+0002  1.91624715924263E-0001
 5.23500000000000E+0002  2.38263860344887E-0001
 5.23450000000000E+0002  2.02169179916382E-0001
 5.23400000000000E+0002  2.02468812465668E-0001
 5.23350000000000E+0002  2.17628106474876E-0001
 5.23300000000000E+0002  1.69090881943703E-0001
 5.23250000000000E+0002  1.85473263263702E-0001
 5.23200000000000E+0002  2.19437390565872E-0001
 5.23150000000000E+0002  2.03578859567642E-0001
 5.23100000000000E+0002  1.86513334512711E-0001
 5.23050000000000E+0002  2.28467866778374E-0001
 5.23000000000000E+0002  2.39945873618126E-0001
 5.22950000000000E+0002  2.15477645397186E-0001
 5.22900000000000E+0002  2.73235917091370E-0001
 5.22850000000000E+0002  2.02495127916336E-0001
 5.22800000000000E+0002  2.12873652577400E-0001
 5.22750000000000E+0002  2.29519039392471E-0001
 5.22700000000000E+0002  2.88297891616821E-0001
 5.22650000000000E+0002  1.80228710174561E-0001
 5.22600000000000E+0002  2.02104300260544E-0001
 5.22550000000000E+0002  1.94760501384735E-0001
 5.22500000000000E+0002  1.81834459304810E-0001
 5.22450000000000E+0002  1.86462968587875E-0001
 5.22400000000000E+0002  2.10085883736610E-0001
 5.22350000000000E+0002  2.20813855528831E-0001
 5.22300000000000E+0002  1.98260352015495E-0001
 5.22250000000000E+0002  2.33294486999512E-0001
 5.22200000000000E+0002  2.17688545584679E-0001
 5.22150000000000E+0002  2.00944960117340E-0001
 5.22100000000000E+0002  2.54244357347488E-0001
 5.22050000000000E+0002  1.98886364698410E-0001
 5.22000000000000E+0002  2.12180376052856E-0001
 5.21950000000000E+0002  2.06849470734596E-0001
 5.21900000000000E+0002  2.25479707121849E-0001
 5.21850000000000E+0002  1.91783472895622E-0001
 5.21800000000000E+0002  2.02471360564232E-0001
 5.21750000000000E+0002  2.19106987118721E-0001
 5.21700000000000E+0002  2.15708047151566E-0001
 5.21650000000000E+0002  2.39767506718636E-0001
 5.21600000000000E+0002  1.95392131805420E-0001
 5.21550000000000E+0002  2.17487543821335E-0001
 5.21500000000000E+0002  2.03904211521149E-0001
 5.21450000000000E+0002  2.25208014249802E-0001
 5.21400000000000E+0002  2.16933622956276E-0001
 5.21350000000000E+0002  1.83440551161766E-0001
 5.21300000000000E+0002  2.12614968419075E-0001
 5.21250000000000E+0002  2.07659065723419E-0001
 5.21200000000000E+0002  2.02248141169548E-0001
 5.21150000000000E+0002  1.85148030519485E-0001
 5.21100000000000E+0002  2.60648012161255E-0001
 5.21050000000000E+0002  2.23521009087563E-0001
 5.21000000000000E+0002  1.95236250758171E-0001
 5.20950000000000E+0002  1.97183012962341E-0001
 5.20900000000000E+0002  2.08068013191223E-0001
 5.20850000000000E+0002  2.20256090164185E-0001
 5.20800000000000E+0002  2.04266875982285E-0001
 5.20750000000000E+0002  1.62462115287781E-0001
 5.20700000000000E+0002  2.07952931523323E-0001
 5.20650000000000E+0002  1.89160034060478E-0001
 5.20600000000000E+0002  2.02805534005165E-0001
 5.20550000000000E+0002  2.16771379113197E-0001
 5.20500000000000E+0002  2.18775913119316E-0001
 5.20450000000000E+0002  2.03526154160500E-0001
 5.20400000000000E+0002  2.52663820981979E-0001
 5.20350000000000E+0002  2.34155803918838E-0001
 5.20300000000000E+0002  1.72098740935326E-0001
 5.20250000000000E+0002  2.46117457747459E-0001
 5.20200000000000E+0002  2.07879319787025E-0001
 5.20150000000000E+0002  1.98781773447990E-0001
 5.20100000000000E+0002  2.11764842271805E-0001
 5.20050000000000E+0002  2.52636730670929E-0001
 5.20000000000000E+0002  2.25745528936386E-0001

[Region 2]
Region Name=C1s
Dimension 1 name=Binding Energy [eV]
Dimension 1 size=601
Dimension 1 scale=300 299.95 299.9 299.85 299.8 299.75 299.7 299.65 299.6 299.55 299.5 299.45 299.4 299.35 299.3 299.25 299.2 299.15 299.1 299.05 299 298.95 298.9 298.85 298.8 298.75 298.7 298.65 298.6 298.55 298.5 298.45 298.4 298.35 298.3 298.25 298.2 298.15 298.1 298.05 298 297.95 297.9 297.85 297.8 297.75 297.7 297.65 297.6 297.55 297.5 297.45 297.4 297.35 297.3 297.25 297.2 297.15 297.1 297.05 297 296.95 296.9 296.85 296.8 296.75 296.7 296.65 296.6 296.55 296.5 296.45 296.4 296.35 296.3 296.25 296.2 296.15 296.1 296.05 296 295.95 295.9 295.85 295.8 295.75 295.7 295.65 295.6 295.55 295.5 295.45 295.4 295.35 295.3 295.25 295.2 295.15 295.1 295.05 295 294.95 294.9 294.85 294.8 294.75 294.7 294.65 294.6 294.55 294.5 294.45 294.4 294.35 294.3 294.25 294.2 294.15 294.1 294.05 294 293.95 293.9 293.85 293.8 293.75 293.7 293.65 293.6 293.55 293.5 293.45 293.4 293.35 293.3 293.25 293.2 293.15 293.1 293.05 293 292.95 292.9 292.85 292.8 292.75 292.7 292.65 292.6 292.55 292.5 292.45 292.4 292.35 292.3 292.25 292.2 292.15 292.1 292.05 292 291.95 291.9 291.85 291.8 291.75 291.7 291.65 291.6 291.55 291.5 291.45 291.4 291.35 291.3 291.25 291.2 291.15 291.1 291.05 291 290.95 290.9 290.85 290.8 290.75 290.7 290.65 290.6 290.55 290.5 290.45 290.4 290.35 290.3 290.25 290.2 290.15 290.1 290.05 290 289.95 289.9 289.85 289.8 289.75 289.7 289.65 289.6 289.55 289.5 289.45 289.4 289.35 289.3 289.25 289.2 289.15 289.1 289.05 289 288.95 288.9 288.85 288.8 288.75 288.7 288.65 288.6 288.55 288.5 288.45 288.4 288.35 288.3 288.25 288.2 288.15 288.1 288.05 288 287.95 287.9 287.85 287.8 287.75 287.7 287.65 287.6 287.55 287.5 287.45 287.4 287.35 287.3 287.25 287.2 287.15 287.1 287.05 287 286.95 286.9 286.85 286.8 286.75 286.7 286.65 286.6 286.55 286.5 286.45 286.4 286.35 286.3 286.25 286.2 286.15 286.1 286.05 286 285.95 285.9 285.85 285.8 285.75 285.7 285.65 285.6 285.55 285.5 285.45 285.4 285.35 285.3 285.25 285.2 285.15 285.1 285.05 285 284.95 284.9 284.85 284.8 284.75 284.7 284.65 284.6 284.55 284.5 284.45 284.4 284.35 284.3 284.25 284.2 284.15 284.1 284.05 284 283.95 283.9 283.85 283.8 283.75 283.7 283.65 283.6 283.55 283.5 283.45 283.4 283.35 283.3 283.25 283.2 283.15 283.1 283.05 283 282.95 282.9 282.85 282.8 282.75 282.7 282.65 282.6 282.55 282.5 282.45 282.4 282.35 282.3 282.25 282.2 282.15 282.1 282.05 282 281.95 281.9 281.85 281.8 281.75 281.7 281.65 281.6 281.55 281.5 281.45 281.4 281.35 281.3 281.25 281.2 281.15 281.1 281.05 281 280.95 280.9 280.85 280.8 280.75 280.7 280.65 280.6 280.55 280.5 280.45 280.4 280.35 280.3 280.25 280.2 280.15 280.1 280.05 280 279.95 279.9 279.85 279.8 279.75 279.7 279.65 279.6 279.55 279.5 279.45 279.4 279.35 279.3 279.25 279.2 279.15 279.1 279.05 279 278.95 278.9 278.85 278.8 278.75 278.7 278.65 278.6 278.55 278.5 278.45 278.4 278.35 278.3 278.25 278.2 278.15 278.1 278.05 278 277.95 277.9 277.85 277.8 277.75 277.7 277.65 277.6 277.55 277.5 277.45 277.4 277.35 277.3 277.25 277.2 277.15 277.1 277.05 277 276.95 276.9 276.85 276.8 276.75 276.7 276.65 276.6 276.55 276.5 276.45 276.4 276.35 276.3 276.25 276.2 276.15 276.1 276.05 276 275.95 275.9 275.85 275.8 275.75 275.7 275.65 275.6 275.55 275.5 275.45 275.4 275.35 275.3 275.25 275.2 275.15 275.1 275.05 275 274.95 274.9 274.85 274.8 274.75 274.7 274.65 274.6 274.55 274.5 274.45 274.4 274.35 274.3 274.25 274.2 274.15 274.1 274.05 274 273.95 273.9 273.85 273.8 273.75 273.7 273.65 273.6 273.55 273.5 273.45 273.4 273.35 273.3 273.25 273.2 273.15 273.1 273.05 273 272.95 272.9 272.85 272.8 272.75 272.7 272.65 272.6 272.55 272.5 272.45 272.4 272.35 272.3 272.25 272.2 272.15 272.1 272.05 272 271.95 271.9 271.85 271.8 271.75 271.7 271.65 271.6 271.55 271.5 271.45 271.4 271.35 271.3 271.25 271.2 271.15 271.1 271.05 271 270.95 270.9 270.85 270.8 270.75 270.7 270.65 270.6 270.55 270.5 270.45 270.4 270.35 270.3 270.25 270.2 270.15 270.1 270.05 270

[Info 2]
Region Name=C1s
Lens Mode=SwiftAcc_HiPP3L
Pass Energy=50
Number of Sweeps=1
Excitation Energy=920.0985507494
Energy Scale=Binding
Acquisition Mode=Swept
Energy Unit=Kinetic
Center Energy=635.0985507494
Low Energy=620.0985507494
High Energy=650.0985507494
Energy Step=0.05
Step Time=100
Detector First X-Channel=1
Detector Last X-Channel=512
Detector First Y-Channel=1
Detector Last Y-Channel=440
Number of Slices=1
File=T:\hippie\20200272\2021070708\raw\Magnetite_1_0016.pxt,.txt
Sequence=Z:\20200272\2021070708\raw\sequence2.seq
Spectrum Name=Magnetite_1_016C1s
Instrument=HiPP-3L-9676
Location=Scienta
User=Scienta
Sample=Xe
Comments=;
Date=2021-07-06
Time=16:57:09
Time per Spectrum Channel=6.6
DetectorMode=ADC
[Run Mode Information 2]



[Data 2]
 3.00000000000000E+0002  2.57884442806244E-0001
 2.99950000000000E+0002  3.26376736164093E-0001
 2.99900000000000E+0002  3.04350286722183E-0001
 2.99850000000000E+0002  2.45013639330864E-0001
 2.99800000000000E+0002  2.21331268548965E-0001
 2.99750000000000E+0002  2.55232483148575E-0001
 2.99700000000000E+0002  2.29705512523651E-0001
 2.99650000000000E+0002  2.67215698957443E-0001
 2.99600000000000E+0002  2.33921632170677E-0001
 2.99550000000000E+0002  2.62550979852676E-0001
 2.99500000000000E+0002  2.58193969726562E-0001
 2.99450000000000E+0002  4.21383321285248E-0001
 2.99400000000000E+0002  2.45325535535812E-0001
 2.99350000000000E+0002  2.67722368240356E-0001
 2.99300000000000E+0002  2.43891254067421E-0001
 2.99250000000000E+0002  2.64503777027130E-0001
 2.99200000000000E+0002  2.52920091152191E-0001
 2.99150000000000E+0002  2.66813158988953E-0001
 2.99100000000000E+0002  2.85928338766098E-0001
 2.99050000000000E+0002  2.44599968194962E-0001
 2.99000000000000E+0002  2.55731582641602E-0001
 2.98950000000000E+0002  2.63548493385315E-0001
 2.98900000000000E+0002  2.82413929700851E-0001
 2.98850000000000E+0002  2.61470586061478E-0001
 2.98800000000000E+0002  2.63123571872711E-0001
 2.98750000000000E+0002  2.54730641841888E-0001
 2.98700000000000E+0002  2.99565732479095E-0001
 2.98650000000000E+0002  2.94170290231705E-0001
 2.98600000000000E+0002  2.58130162954330E-0001
 2.98550000000000E+0002  2.74100244045258E-0001
 2.98500000000000E+0002  2.69139736890793E-0001
 2.98450000000000E+0002  2.31139510869980E-0001
 2.98400000000000E+0002  2.44640067219734E-0001
 2.98350000000000E+0002  2.14335709810257E-0001
 2.98300000000000E+0002  2.76785999536514E-0001
 2.98250000000000E+0002  2.59349435567856E-0001
 2.98200000000000E+0002  2.77517557144165E-0001
 2.98150000000000E+0002  2.58870601654053E-0001
 2.98100000000000E+0002  2.71060764789581E-0001
 2.98050000000000E+0002  2.56767839193344E-0001
 2.98000000000000E+0002  2.25008547306061E-0001
 2.97950000000000E+0002  2.39590525627136E-0001
 2.97900000000000E+0002  2.58231312036514E-0001
 2.97850000000000E+0002  2.76625096797943E-0001
 2.97800000000000E+0002  2.43696734309196E-0001
 2.97750000000000E+0002  2.70076245069504E-0001
 2.97700000000000E+0002  2.72706687450409E-0001
 2.97650000000000E+0002  2.57559090852737E-0001
 2.97600000000000E+0002  2.50871181488037E-0001
 2.97550000000000E+0002  2.99920141696930E-0001
 2.97500000000000E+0002  2.55029410123825E-0001
 2.97450000000000E+0002  3.41723710298538E-0001
 2.97400000000000E+0002  2.54405081272125E-0001
 2.97350000000000E+0002  2.84302085638046E-0001
 2.97300000000000E+0002  2.78172850608826E-0001
 2.97250000000000E+0002  2.67990708351135E-0001
 2.97200000000000E+0002  2.71853357553482E-0001
 2.97150000000000E+0002  2.71091163158417E-0001
 2.97100000000000E+0002  2.72770017385483E-0001
 2.97050000000000E+0002  2.46788337826729E-0001
 2.97000000000000E+0002  2.61647611856461E-0001
 2.96950000000000E+0002  2.87899971008301E-0001
 2.96900000000000E+0002  3.03070336580276E-0001
 2.96850000000000E+0002  2.75771617889404E-0001
 2.96800000000000E+0002  2.30118036270142E-0001
 2.96750000000000E+0002  2.67879664897919E-0001
 2.96700000000000E+0002  2.92864382266998E-0001
 2.96650000000000E+0002  2.65606105327606E-0001
 2.96600000000000E+0002  3.25994729995728E-0001
 2.96550000000000E+0002  2.70969420671463E-0001
 2.96500000000000E+0002  2.86560207605362E-0001
 2.96450000000000E+0002  2.70717412233353E-0001
 2.96400000000000E+0002  2.66977280378342E-0001
 2.96350000000000E+0002  2.52399116754532E-0001
 2.96300000000000E+0002  2.41544917225838E-0001
 2.96250000000000E+0002  3.15200328826904E-0001
 2.96200000000000E+0002  2.87563085556030E-0001
 2.96150000000000E+0002  3.07725369930267E-0001
 2.96100000000000E+0002  2.53817260265350E-0001
 2.96050000000000E+0002  2.76380896568298E-0001
 2.96000000000000E+0002  2.75182902812958E-0001
 2.95950000000000E+0002  3.29311698675156E-0001
 2.95900000000000E+0002  3.04697722196579E-0001
 2.95850000000000E+0002  2.53560185432434E-0001
 2.95800000000000E+0002  2.75951057672501E-0001
 2.95750000000000E+0002  2.18991190195084E-0001
 2.95700000000000E+0002  2.57910728454590E-0001
 2.95650000000000E+0002  2.77375012636185E-0001
 2.95600000000000E+0002  2.62331485748291E-0001
 2.95550000000000E+0002  3.14019590616226E-0001
 2.95500000000000E+0002  2.45776057243347E-0001
 2.95450000000000E+0002  2.69385337829590E-0001
 2.95400000000000E+0002  2.63150334358215E-0001
 2.95350000000000E+0002  3.13630819320679E-0001
 2.95300000000000E+0002  3.32396268844604E-0001
 2.95250000000000E+0002  3.03955584764481E-0001
 2.95200000000000E+0002  2.72083193063736E-0001
 2.95150000000000E+0002  3.05458605289459E-0001
 2.95100000000000E+0002  2.71308660507202E-0001
 2.95050000000000E+0002  3.13117861747742E-0001
 2.95000000000000E+0002  2.75715470314026E-0001
 2.94950000000000E+0002  3.61709564924240E-0001
 2.94900000000000E+0002  3.22512835264206E-0001
 2.94850000000000E+0002  2.76757091283798E-0001
 2.94800000000000E+0002  3.37718129158020E-0001
 2.94750000000000E+0002  3.02634537220001E-0001
 2.94700000000000E+0002  3.50273877382278E-0001
 2.94650000000000E+0002  3.18651944398880E-0001
 2.94600000000000E+0002  3.38418394327164E-0001
 2.94550000000000E+0002  3.67821782827377E-0001
 2.94500000000000E+0002  2.51514136791229E-0001
 2.94450000000000E+0002  2.58309066295624E-0001
 2.94400000000000E+0002  2.72358328104019E-0001
 2.94350000000000E+0002  3.16630065441132E-0001
 2.94300000000000E+0002  2.84961730241776E-0001
 2.94250000000000E+0002  3.11151921749115E-0001
 2.94200000000000E+0002  2.45760619640350E-0001
 2.94150000000000E+0002  2.60952442884445E-0001
 2.94100000000000E+0002  2.93971925973892E-0001
 2.94050000000000E+0002  3.02211731672287E-0001
 2.94000000000000E+0002  2.83763527870178E-0001
 2.93950000000000E+0002  2.97733873128891E-0001
 2.93900000000000E+0002  3.19090366363525E-0001
 2.93850000000000E+0002  3.09157669544220E-0001
 2.93800000000000E+0002  3.08763474225998E-0001
 2.93750000000000E+0002  3.23686361312866E-0001
 2.93700000000000E+0002  3.18968504667282E-0001
 2.93650000000000E+0002  4.09350931644440E-0001
 2.93600000000000E+0002  3.12210470438004E-0001
 2.93550000000000E+0002  3.14390480518341E-0001
 2.93500000000000E+0002  2.64918655157089E-0001
 2.93450000000000E+0002  3.07890206575394E-0001
 2.93400000000000E+0002  2.55737841129303E-0001
 2.93350000000000E+0002  3.64780515432358E-0001
 2.93300000000000E+0002  3.18272173404694E-0001
 2.93250000000000E+0002  2.78122484683990E-0001
 2.93200000000000E+0002  2.72645413875580E-0001
 2.93150000000000E+0002  3.40023100376129E-0001
 2.93100000000000E+0002  2.80138641595840E-0001
 2.93050000000000E+0002  2.65930593013763E-0001
 2.93000000000000E+0002  2.50107973814011E-0001
 2.92950000000000E+0002  3.04150670766830E-0001
 2.92900000000000E+0002  3.21189373731613E-0001
 2.92850000000000E+0002  2.97458142042160E-0001
 2.92800000000000E+0002  2.96601265668869E-0001
 2.92750000000000E+0002  2.94455170631409E-0001
 2.92700000000000E+0002  3.91884595155716E-0001
 2.92650000000000E+0002  2.76357918977737E-0001
 2.92600000000000E+0002  3.08879524469376E-0001
 2.92550000000000E+0002  3.71472358703613E-0001
 2.92500000000000E+0002  3.59538048505783E-0001
 2.92450000000000E+0002  2.82775491476059E-0001
 2.92400000000000E+0002  2.32322767376900E-0001
 2.92350000000000E+0002  2.98023998737335E-0001
 2.92300000000000E+0002  2.67812818288803E-0001
 2.92250000000000E+0002  3.11247289180756E-0001
 2.92200000000000E+0002  3.40279847383499E-0001
 2.92150000000000E+0002  3.03728818893433E-0001
 2.92100000000000E+0002  3.10178995132446E-0001
 2.92050000000000E+0002  3.11604917049408E-0001
 2.92000000000000E+0002  3.13562542200089E-0001
 2.91950000000000E+0002  3.15502732992172E-0001
 2.91900000000000E+0002  2.97702670097351E-0001
 2.91850000000000E+0002  3.02637159824371E-0001
 2.91800000000000E+0002  2.96725332736969E-0001
 2.91750000000000E+0002  2.76379793882370E-0001
 2.91700000000000E+0002  2.73075550794601E-0001
 2.91650000000000E+0002  3.33810657262802E-0001
 2.91600000000000E+0002  3.09142827987671E-0001
 2.91550000000000E+0002  2.86507874727249E-0001
 2.91500000000000E+0002  3.06656181812286E-0001
 2.91450000000000E+0002  3.28269273042679E-0001
 2.91400000000000E+0002  3.50642651319504E-0001
 2.91350000000000E+0002  3.26609373092651E-0001
 2.91300000000000E+0002  2.90500313043594E-0001
 2.91250000000000E+0002  2.98689067363739E-0001
 2.91200000000000E+0002  3.16545754671097E-0001
 2.91150000000000E+0002  3.54004591703415E-0001
 2.91100000000000E+0002  2.77516365051270E-0001
 2.91050000000000E+0002  3.53592574596405E-0001
 2.91000000000000E+0002  3.12003612518311E-0001
 2.90950000000000E+0002  3.22629481554031E-0001
 2.90900000000000E+0002  2.95099616050720E-0001
 2.90850000000000E+0002  2.82158941030502E-0001
 2.90800000000000E+0002  3.51594626903534E-0001
 2.90750000000000E+0002  3.23866099119186E-0001
 2.90700000000000E+0002  3.31752508878708E-0001
 2.90650000000000E+0002  2.95017600059509E-0001
 2.90600000000000E+0002  3.59956026077271E-0001
 2.90550000000000E+0002  2.94900983572006E-0001
 2.90500000000000E+0002  3.36683660745621E-0001
 2.90450000000000E+0002  3.48241895437241E-0001
 2.90400000000000E+0002  2.40224093198776E-0001
 2.90350000000000E+0002  3.43745589256287E-0001
 2.90300000000000E+0002  3.27549070119858E-0001
 2.90250000000000E+0002  3.50373089313507E-0001
 2.90200000000000E+0002  2.81479001045227E-0001
 2.90150000000000E+0002  3.07424694299698E-0001
 2.90100000000000E+0002  3.36271375417709E-0001
 2.90050000000000E+0002  3.14612209796906E-0001
 2.90000000000000E+0002  2.73090988397598E-0001
 2.89950000000000E+0002  3.20373356342316E-0001
 2.89900000000000E+0002  2.96742260456085E-0001
 2.89850000000000E+0002  3.17327916622162E-0001
 2.89800000000000E+0002  3.05554330348969E-0001
 2.89750000000000E+0002  3.00866067409515E-0001
 2.89700000000000E+0002  3.37961345911026E-0001
 2.89650000000000E+0002  3.38828742504120E-0001
 2.89600000000000E+0002  3.10110658407211E-0001
 2.89550000000000E+0002  3.59160840511322E-0001
 2.89500000000000E+0002  3.44589293003082E-0001
 2.89450000000000E+0002  3.53499948978424E-0001
 2.89400000000000E+0002  3.61339360475540E-0001
 2.89350000000000E+0002  2.93402194976807E-0001
 2.89300000000000E+0002  3.38079422712326E-0001
 2.89250000000000E+0002  3.08085858821869E-0001
 2.89200000000000E+0002  3.57079267501831E-0001
 2.89150000000000E+0002  3.12249481678009E-0001
 2.89100000000000E+0002  3.42107534408569E-0001
 2.89050000000000E+0002  3.14156979322433E-0001
 2.89000000000000E+0002  3.75413209199905E-0001
 2.88950000000000E+0002  3.30997228622437E-0001
 2.88900000000000E+0002  3.31871449947357E-0001
 2.88850000000000E+0002  3.66605162620544E-0001
 2.88800000000000E+0002  3.17710280418396E-0001
 2.88750000000000E+0002  3.41845273971558E-0001
 2.88700000000000E+0002  3.59035313129425E-0001
 2.88650000000000E+0002  3.43289285898209E-0001
 2.88600000000000E+0002  3.21816354990006E-0001
 2.88550000000000E+0002  3.13740879297256E-0001
 2.88500000000000E+0002  3.32290858030319E-0001
 2.88450000000000E+0002  3.25933188199997E-0001
 2.88400000000000E+0002  3.48978579044342E-0001
 2.88350000000000E+0002  3.62040162086487E-0001
 2.88300000000000E+0002  3.58325034379959E-0001
 2.88250000000000E+0002  3.27886790037155E-0001
 2.88200000000000E+0002  3.44808429479599E-0001
 2.88150000000000E+0002  3.95421713590622E-0001
 2.88100000000000E+0002  3.36257606744766E-0001
 2.88050000000000E+0002  3.36481034755707E-0001
 2.88000000000000E+0002  3.48730623722076E-0001
 2.87950000000000E+0002  3.85552495718002E-0001
 2.87900000000000E+0002  3.84280711412430E-0001
 2.87850000000000E+0002  2.94269502162933E-0001
 2.87800000000000E+0002  3.39599430561066E-0001
 2.87750000000000E+0002  3.35722297430038E-0001
 2.87700000000000E+0002  3.30080658197403E-0001
 2.87650000000000E+0002  3.14205378293991E-0001
 2.87600000000000E+0002  3.51388156414032E-0001
 2.87550000000000E+0002  3.76208513975143E-0001
 2.87500000000000E+0002  4.05102342367172E-0001
 2.87450000000000E+0002  3.45277637243271E-0001
 2.87400000000000E+0002  3.49857777357101E-0001
 2.87350000000000E+0002  3.77378731966019E-0001
 2.87300000000000E+0002  3.84315133094788E-0001
 2.87250000000000E+0002  3.88223439455032E-0001
 2.87200000000000E+0002  3.32832127809525E-0001
 2.87150000000000E+0002  3.71996968984604E-0001
 2.87100000000000E+0002  3.82847696542740E-0001
 2.87050000000000E+0002  3.47610861063004E-0001
 2.87000000000000E+0002  2.75738209486008E-0001
 2.86950000000000E+0002  3.55133980512619E-0001
 2.86900000000000E+0002  3.72578799724579E-0001
 2.86850000000000E+0002  3.17680418491364E-0001
 2.86800000000000E+0002  3.24975848197937E-0001
 2.86750000000000E+0002  4.04402822256088E-0001
 2.86700000000000E+0002  4.08986270427704E-0001
 2.86650000000000E+0002  3.71697455644608E-0001
 2.86600000000000E+0002  4.14625972509384E-0001
 2.86550000000000E+0002  3.55252355337143E-0001
 2.86500000000000E+0002  4.08927887678146E-0001
 2.86450000000000E+0002  4.44813936948776E-0001
 2.86400000000000E+0002  3.68945986032486E-0001
 2.86350000000000E+0002  3.82780641317368E-0001
 2.86300000000000E+0002  3.43854159116745E-0001
 2.86250000000000E+0002  3.53236079216003E-0001
 2.86200000000000E+0002  3.62600892782211E-0001
 2.86150000000000E+0002  3.81204575300217E-0001
 2.86100000000000E+0002  3.95534723997116E-0001
 2.86050000000000E+0002  3.85430663824081E-0001
 2.86000000000000E+0002  3.88272196054459E-0001
 2.85950000000000E+0002  3.67129713296890E-0001
 2.85900000000000E+0002  4.22977775335312E-0001
 2.85850000000000E+0002  3.99301499128342E-0001
 2.85800000000000E+0002  3.95217537879944E-0001
 2.85750000000000E+0002  3.83090913295746E-0001
 2.85700000000000E+0002  3.97374540567398E-0001
 2.85650000000000E+0002  3.89578908681870E-0001
 2.85600000000000E+0002  3.26817721128464E-0001
 2.85550000000000E+0002  3.42829823493958E-0001
 2.85500000000000E+0002  4.41366612911224E-0001
 2.85450000000000E+0002  4.55894947052002E-0001
 2.85400000000000E+0002  3.74602705240250E-0001
 2.85350000000000E+0002  3.64592999219894E-0001
 2.85300000000000E+0002  3.91046196222305E-0001
 2.85250000000000E+0002  4.60793048143387E-0001
 2.85200000000000E+0002  3.41037184000015E-0001
 2.85150000000000E+0002  4.23457056283951E-0001
 2.85100000000000E+0002  4.40382212400436E-0001
 2.85050000000000E+0002  3.98248493671417E-0001
 2.85000000000000E+0002  4.34722483158112E-0001
 2.84950000000000E+0002  4.11128789186478E-0001
 2.84900000000000E+0002  3.99164259433746E-0001
 2.84850000000000E+0002  3.72566521167755E-0001
 2.84800000000000E+0002  3.52130681276321E-0001
 2.84750000000000E+0002  4.83472347259521E-0001
 2.84700000000000E+0002  3.81933420896530E-0001
 2.84650000000000E+0002  3.40658903121948E-0001
 2.84600000000000E+0002  4.64413404464722E-0001
 2.84550000000000E+0002  3.99526864290237E-0001
 2.84500000000000E+0002  3.64292621612549E-0001
 2.84450000000000E+0002  3.38486611843109E-0001
 2.84400000000000E+0002  3.60753268003464E-0001
 2.84350000000000E+0002  4.02372598648071E-0001
 2.84300000000000E+0002  3.91073048114777E-0001
 2.84250000000000E+0002  4.21760559082031E-0001
 2.84200000000000E+0002  4.31302279233932E-0001
 2.84150000000000E+0002  4.57613199949265E-0001
 2.84100000000000E+0002  4.44797396659851E-0001
 2.84050000000000E+0002  4.52602297067642E-0001
 2.84000000000000E+0002  4.66826975345612E-0001
 2.83950000000000E+0002  4.30265188217163E-0001
 2.83900000000000E+0002  4.10324841737747E-0001
 2.83850000000000E+0002  3.49239856004715E-0001
 2.83800000000000E+0002  3.87832373380661E-0001
 2.83750000000000E+0002  3.83846670389175E-0001
 2.83700000000000E+0002  4.69574987888336E-0001
 2.83650000000000E+0002  4.19926196336746E-0001
 2.83600000000000E+0002  4.27378445863724E-0001
 2.83550000000000E+0002  4.41368907690048E-0001
 2.83500000000000E+0002  3.87581199407578E-0001
 2.83450000000000E+0002  4.05602812767029E-0001
 2.83400000000000E+0002  5.00535309314728E-0001
 2.83350000000000E+0002  4.51316505670547E-0001
 2.83300000000000E+0002  4.70763772726059E-0001
 2.83250000000000E+0002  4.42118674516678E-0001
 2.83200000000000E+0002  3.97557288408279E-0001
 2.83150000000000E+0002  4.01065737009048E-0001
 2.83100000000000E+0002  4.37570363283157E-0001
 2.83050000000000E+0002  4.81882780790329E-0001
 2.83000000000000E+0002  4.23782140016556E-0001
 2.82950000000000E+0002  4.69492793083191E-0001
 2.82900000000000E+0002  4.41919386386871E-0001
 2.82850000000000E+0002  4.36875760555267E-0001
 2.82800000000000E+0002  4.06095653772354E-0001
 2.82750000000000E+0002  4.23541128635406E-0001
 2.82700000000000E+0002  4.60065066814423E-0001
 2.82650000000000E+0002  4.54727232456207E-0001
 2.82600000000000E+0002  4.68185871839523E-0001
 2.82550000000000E+0002  4.56579983234406E-0001
 2.82500000000000E+0002  4.86013203859329E-0001
 2.82450000000000E+0002  4.53372627496719E-0001
 2.82400000000000E+0002  4.39611911773682E-0001
 2.82350000000000E+0002  5.06203055381775E-0001
 2.82300000000000E+0002  3.95634353160858E-0001
 2.82250000000000E+0002  4.34119313955307E-0001
 2.82200000000000E+0002  4.51988518238068E-0001
 2.82150000000000E+0002  4.21785950660706E-0001
 2.82100000000000E+0002  5.02300202846527E-0001
 2.82050000000000E+0002  5.03318607807159E-0001
 2.82000000000000E+0002  4.82567101716995E-0001
 2.81950000000000E+0002  4.72773522138596E-0001
 2.81900000000000E+0002  4.81654763221741E-0001
 2.81850000000000E+0002  4.51074272394180E-0001
 2.81800000000000E+0002  5.23812770843506E-0001
 2.81750000000000E+0002  4.18708562850952E-0001
 2.81700000000000E+0002  4.42889958620071E-0001
 2.81650000000000E+0002  5.04432737827301E-0001
 2.81600000000000E+0002  4.02221858501434E-0001
 2.81550000000000E+0002  4.26941663026810E-0001
 2.81500000000000E+0002  4.27622705698013E-0001
 2.81450000000000E+0002  4.50615793466568E-0001
 2.81400000000000E+0002  4.31352347135544E-0001
 2.81350000000000E+0002  4.42350685596466E-0001
 2.81300000000000E+0002  5.06962597370148E-0001
 2.81250000000000E+0002  5.15719771385193E-0001
 2.81200000000000E+0002  4.53076004981995E-0001
 2.81150000000000E+0002  5.00894486904144E-0001
 2.81100000000000E+0002  5.66138565540314E-0001
 2.81050000000000E+0002  4.43778514862061E-0001
 2.81000000000000E+0002  5.06004393100738E-0001
 2.80950000000000E+0002  4.42851513624191E-0001
 2.80900000000000E+0002  4.35480296611786E-0001
 2.80850000000000E+0002  4.96587067842484E-0001
 2.80800000000000E+0002  5.51409482955933E-0001
 2.80750000000000E+0002  5.09810447692871E-0001
 2.80700000000000E+0002  4.24964308738708E-0001
 2.80650000000000E+0002  4.38507556915283E-0001
 2.80600000000000E+0002  4.67474400997162E-0001
 2.80550000000000E+0002  4.92778122425079E-0001
 2.80500000000000E+0002  5.07097721099854E-0001
 2.80450000000000E+0002  4.39812123775482E-0001
 2.80400000000000E+0002  4.60495471954346E-0001
 2.80350000000000E+0002  4.76391553878784E-0001
 2.80300000000000E+0002  4.51645225286484E-0001
 2.80250000000000E+0002  5.10500907897949E-0001
 2.80200000000000E+0002  4.58012461662292E-0001
 2.80150000000000E+0002  5.42804539203644E-0001
 2.80100000000000E+0002  4.90784704685211E-0001
 2.80050000000000E+0002  4.64936345815659E-0001
 2.80000000000000E+0002  5.09654104709625E-0001
 2.79950000000000E+0002  4.67263936996460E-0001
 2.79900000000000E+0002  4.50658440589905E-0001
 2.79850000000000E+0002  5.00165700912476E-0001
 2.79800000000000E+0002  4.74161237478256E-0001
 2.79750000000000E+0002  4.88995939493179E-0001
 2.79700000000000E+0002  5.28304874897003E-0001
 2.79650000000000E+0002  4.39658701419830E-0001
 2.79600000000000E+0002  4.29458707571030E-0001
 2.79550000000000E+0002  4.52806681394577E-0001
 2.79500000000000E+0002  5.04273951053619E-0001
 2.79450000000000E+0002  5.00188887119293E-0001
 2.79400000000000E+0002  4.73586648702621E-0001
 2.79350000000000E+0002  5.38693487644196E-0001
 2.79300000000000E+0002  6.16302788257599E-0001
 2.79250000000000E+0002  4.83005344867706E-0001
 2.79200000000000E+0002  5.07706165313721E-0001
 2.79150000000000E+0002  5.35180509090424E-0001
 2.79100000000000E+0002  5.71618139743805E-0001
 2.79050000000000E+0002  4.84046489000320E-0001
 2.79000000000000E+0002  4.93709415197372E-0001
 2.78950000000000E+0002  5.23679614067078E-0001
 2.78900000000000E+0002  5.69696784019470E-0001
 2.78850000000000E+0002  4.38614815473557E-0001
 2.78800000000000E+0002  5.20067274570465E-0001
 2.78750000000000E+0002  4.98773217201233E-0001
 2.78700000000000E+0002  4.80248957872391E-0001
 2.78650000000000E+0002  5.00003516674042E-0001
 2.78600000000000E+0002  4.96536940336227E-0001
 2.78550000000000E+0002  4.86205458641052E-0001
 2.78500000000000E+0002  4.70182538032532E-0001
 2.78450000000000E+0002  5.27047932147980E-0001
 2.78400000000000E+0002  4.99666482210159E-0001
 2.78350000000000E+0002  5.53632140159607E-0001
 2.78300000000000E+0002  4.68295484781265E-0001
 2.78250000000000E+0002  4.74272370338440E-0001
 2.78200000000000E+0002  4.77177232503891E-0001
 2.78150000000000E+0002  5.39869308471680E-0001
 2.78100000000000E+0002  5.15749394893646E-0001
 2.78050000000000E+0002  5.38591682910919E-0001
 2.78000000000000E+0002  5.06850302219391E-0001
 2.77950000000000E+0002  5.80889284610748E-0001
 2.77900000000000E+0002  5.70154011249542E-0001
 2.77850000000000E+0002  5.64977645874023E-0001
 2.77800000000000E+0002  6.36962711811066E-0001
 2.77750000000000E+0002  5.71819186210632E-0001
 2.77700000000000E+0002  5.67370414733887E-0001
 2.77650000000000E+0002  5.27604877948761E-0001
 2.77600000000000E+0002  5.53089916706085E-0001
 2.77550000000000E+0002  5.43585240840912E-0001
 2.77500000000000E+0002  5.38979351520538E-0001
 2.77450000000000E+0002  6.28098309040070E-0001
 2.77400000000000E+0002  5.94197928905487E-0001
 2.77350000000000E+0002  5.23957014083862E-0001
 2.77300000000000E+0002  4.69170749187470E-0001
 2.77250000000000E+0002  5.53015172481537E-0001
 2.77200000000000E+0002  6.36290431022644E-0001
 2.77150000000000E+0002  5.20587563514710E-0001
 2.77100000000000E+0002  4.91167068481445E-0001
 2.77050000000000E+0002  5.23321628570557E-0001
 2.77000000000000E+0002  5.66207647323608E-0001
 2.76950000000000E+0002  5.83683013916016E-0001
 2.76900000000000E+0002  5.61196744441986E-0001
 2.76850000000000E+0002  5.60258805751801E-0001
 2.76800000000000E+0002  6.18788063526154E-0001
 2.76750000000000E+0002  5.16736090183258E-0001
 2.76700000000000E+0002  5.16056776046753E-0001
 2.76650000000000E+0002  6.10765755176544E-0001
 2.76600000000000E+0002  5.18221795558929E-0001
 2.76550000000000E+0002  5.27859568595886E-0001
 2.76500000000000E+0002  5.91659128665924E-0001
 2.76450000000000E+0002  6.16220712661743E-0001
 2.76400000000000E+0002  5.53615927696228E-0001
 2.76350000000000E+0002  5.91809153556824E-0001
 2.76300000000000E+0002  5.97904145717621E-0001
 2.76250000000000E+0002  5.48761427402496E-0001
 2.76200000000000E+0002  5.62640249729156E-0001
 2.76150000000000E+0002  5.88061749935150E-0001
 2.76100000000000E+0002  5.58645784854889E-0001
 2.76050000000000E+0002  5.70545673370361E-0001
 2.76000000000000E+0002  5.99176347255707E-0001
 2.75950000000000E+0002  6.38527035713196E-0001
 2.75900000000000E+0002  5.74436783790588E-0001
 2.75850000000000E+0002  5.88233828544617E-0001
 2.75800000000000E+0002  5.71287333965302E-0001
 2.75750000000000E+0002  5.68094193935394E-0001
 2.75700000000000E+0002  5.23522377014160E-0001
 2.75650000000000E+0002  4.94365513324738E-0001
 2.75600000000000E+0002  5.71986734867096E-0001
 2.75550000000000E+0002  6.13092482089996E-0001
 2.75500000000000E+0002  5.70582211017609E-0001
 2.75450000000000E+0002  5.02016305923462E-0001
 2.75400000000000E+0002  5.65826177597046E-0001
 2.75350000000000E+0002  6.10906183719635E-0001
 2.75300000000000E+0002  6.16830229759216E-0001
 2.75250000000000E+0002  5.74804484844208E-0001
 2.75200000000000E+0002  6.21027052402496E-0001
 2.75150000000000E+0002  6.27307593822479E-0001
 2.75100000000000E+0002  6.05505228042602E-0001
 2.75050000000000E+0002  5.85817098617554E-0001
 2.75000000000000E+0002  5.56187033653259E-0001
 2.74950000000000E+0002  5.85923969745636E-0001
 2.74900000000000E+0002  6.10021889209747E-0001
 2.74850000000000E+0002  6.54290020465851E-0001
 2.74800000000000E+0002  6.23248577117920E-0001
 2.74750000000000E+0002  6.43923103809357E-0001
 2.74700000000000E+0002  5.78260064125061E-0001
 2.74650000000000E+0002  6.06682658195496E-0001
 2.74600000000000E+0002  6.47066950798035E-0001
 2.74550000000000E+0002  5.76065599918366E-0001
 2.74500000000000E+0002  5.80439507961273E-0001
 2.74450000000000E+0002  5.29996216297150E-0001
 2.74400000000000E+0002  5.21560609340668E-0001
 2.74350000000000E+0002  6.56100511550903E-0001
 2.74300000000000E+0002  5.65535008907318E-0001
 2.74250000000000E+0002  5.56101620197296E-0001
 2.74200000000000E+0002  6.04525208473206E-0001
 2.74150000000000E+0002  5.95198571681976E-0001
 2.74100000000000E+0002  6.45791232585907E-0001
 2.74050000000000E+0002  5.92331290245056E-0001
 2.74000000000000E+0002  6.02315306663513E-0001
 2.73950000000000E+0002  6.25635087490082E-0001
 2.73900000000000E+0002  6.37919723987579E-0001
 2.73850000000000E+0002  5.88544785976410E-0001
 2.73800000000000E+0002  5.74573576450348E-0001
 2.73750000000000E+0002  5.77189683914185E-0001
 2.73700000000000E+0002  5.69016933441162E-0001
 2.73650000000000E+0002  6.09379827976227E-0001
 2.73600000000000E+0002  6.87699735164642E-0001
 2.73550000000000E+0002  5.62167048454285E-0001
 2.73500000000000E+0002  5.55771648883820E-0001
 2.73450000000000E+0002  5.83330512046814E-0001
 2.73400000000000E+0002  5.24556934833527E-0001
 2.73350000000000E+0002  5.71264863014221E-0001
 2.73300000000000E+0002  5.59917926788330E-0001
 2.73250000000000E+0002  6.67584002017975E-0001
 2.73200000000000E+0002  5.86737155914307E-0001
 2.73150000000000E+0002  5.65673649311066E-0001
 2.73100000000000E+0002  6.13407373428345E-0001
 2.73050000000000E+0002  5.77451229095459E-0001
 2.73000000000000E+0002  6.12411975860596E-0001
 2.72950000000000E+0002  5.81543624401092E-0001
 2.72900000000000E+0002  4.96347516775131E-0001
 2.72850000000000E+0002  5.69409430027008E-0001
 2.72800000000000E+0002  5.47906756401062E-0001
 2.72750000000000E+0002  5.85024714469910E-0001
 2.72700000000000E+0002  6.00570559501648E-0001
 2.72650000000000E+0002  5.17662763595581E-0001
 2.72600000000000E+0002  5.65078556537628E-0001
 2.72550000000000E+0002  5.72004914283752E-0001
 2.72500000000000E+0002  5.68640053272247E-0001
 2.72450000000000E+0002  5.52399158477783E-0001
 2.72400000000000E+0002  5.47187864780426E-0001
 2.72350000000000E+0002  6.27188444137573E-0001
 2.72300000000000E+0002  6.02044761180878E-0001
 2.72250000000000E+0002  5.59520304203033E-0001
 2.72200000000000E+0002  6.10133767127991E-0001
 2.72150000000000E+0002  4.76256787776947E-0001
 2.72100000000000E+0002  5.53695380687714E-0001
 2.72050000000000E+0002  5.51958620548248E-0001
 2.72000000000000E+0002  5.73429942131042E-0001
 2.71950000000000E+0002  5.43621659278870E-0001
 2.71900000000000E+0002  5.27346491813660E-0001
 2.71850000000000E+0002  5.62428057193756E-0001
 2.71800000000000E+0002  5.86501955986023E-0001
 2.71750000000000E+0002  5.83631634712219E-0001
 2.71700000000000E+0002  5.92590212821960E-0001
 2.71650000000000E+0002  5.34781038761139E-0001
 2.71600000000000E+0002  5.85514247417450E-0001
 2.71550000000000E+0002  5.59694588184357E-0001
 2.71500000000000E+0002  5.74144542217255E-0001
 2.71450000000000E+0002  5.35789191722870E-0001
 2.71400000000000E+0002  5.26311159133911E-0001
 2.71350000000000E+0002  5.47224938869476E-0001
 2.71300000000000E+0002  5.86710214614868E-0001
 2.71250000000000E+0002  6.45488083362579E-0001
 2.71200000000000E+0002  6.25775516033173E-0001
 2.71150000000000E+0002  6.10805332660675E-0001
 2.71100000000000E+0002  5.35799384117126E-0001
 2.71050000000000E+0002  6.02194786071777E-0001
 2.71000000000000E+0002  5.80756008625031E-0001
 2.70950000000000E+0002  5.31399726867676E-0001
 2.70900000000000E+0002  5.46540975570679E-0001
 2.70850000000000E+0002  5.58650135993958E-0001
 2.70800000000000E+0002  5.91467022895813E-0001
 2.70750000000000E+0002  5.69632887840271E-0001
 2.70700000000000E+0002  5.91476559638977E-0001
 2.70650000000000E+0002  5.80577313899994E-0001
 2.70600000000000E+0002  5.63170313835144E-0001
 2.70550000000000E+0002  5.85874259471893E-0001
 2.70500000000000E+0002  5.20159184932709E-0001
 2.70450000000000E+0002  6.40797257423401E-0001
 2.70400000000000E+0002  5.79204499721527E-0001
 2.70350000000000E+0002  5.80817401409149E-0001
 2.70300000000000E+0002  6.23481452465057E-0001
 2.70250000000000E+0002  6.22033655643463E-0001
 2.70200000000000E+0002  5.68455159664154E-0001
 2.70150000000000E+0002  5.74399352073669E-0001
 2.70100000000000E+0002  6.51621401309967E-0001
 2.70050000000000E+0002  5.65390288829803E-0001
 2.70000000000000E+0002  6.22932910919190E-0001

